frequency,"r S[2,1]","i S[2,1]","r S[1,1]","i S[1,1]"
1000000000.0,0.00145942,0.037644,0.99854,-0.0387124
1018000000.0,0.00151236,0.0383196,0.998487,-0.0394072
1036000000.0,0.00156623,0.038995,0.998433,-0.0401019
1054000000.0,0.00162104,0.0396704,0.998378,-0.0407964
1072000000.0,0.00167679,0.0403456,0.998323,-0.0414909
1090000000.0,0.00173347,0.0410207,0.998266,-0.0421852
1108000000.0,0.0017911,0.0416957,0.998208,-0.0428795
1126000000.0,0.00184966,0.0423706,0.99815,-0.0435736
1144000000.0,0.00190916,0.0430454,0.99809,-0.0442676
1162000000.0,0.00196959,0.04372,0.99803,-0.0449614
1180000000.0,0.00203096,0.0443945,0.997968,-0.0456552
1198000000.0,0.00209327,0.0450689,0.997906,-0.0463488
1216000000.0,0.00215651,0.0457432,0.997843,-0.0470423
1234000000.0,0.00222069,0.0464173,0.997778,-0.0477356
1252000000.0,0.0022858,0.0470913,0.997713,-0.0484289
1270000000.0,0.00235185,0.0477652,0.997647,-0.049122
1288000000.0,0.00241883,0.0484389,0.99758,-0.0498149
1306000000.0,0.00248675,0.0491125,0.997512,-0.0505077
1324000000.0,0.00255559,0.0497859,0.997443,-0.0512004
1342000000.0,0.00262538,0.0504592,0.997374,-0.051893
1360000000.0,0.00269609,0.0511324,0.997303,-0.0525854
1378000000.0,0.00276773,0.0518054,0.997231,-0.0532776
1396000000.0,0.00284031,0.0524783,0.997159,-0.0539697
1414000000.0,0.00291382,0.0531511,0.997085,-0.0546617
1432000000.0,0.00298826,0.0538236,0.997011,-0.0553535
1450000000.0,0.00306363,0.0544961,0.996935,-0.0560452
1468000000.0,0.00313993,0.0551683,0.996859,-0.0567367
1486000000.0,0.00321716,0.0558405,0.996782,-0.057428
1504000000.0,0.00329532,0.0565124,0.996703,-0.0581192
1522000000.0,0.00337441,0.0571842,0.996624,-0.0588103
1540000000.0,0.00345443,0.0578559,0.996544,-0.0595011
1558000000.0,0.00353537,0.0585273,0.996463,-0.0601918
1576000000.0,0.00361724,0.0591987,0.996381,-0.0608824
1594000000.0,0.00370004,0.0598698,0.996299,-0.0615728
1612000000.0,0.00378377,0.0605408,0.996215,-0.062263
1630000000.0,0.00386842,0.0612116,0.99613,-0.062953
1648000000.0,0.003954,0.0618822,0.996044,-0.0636429
1666000000.0,0.00404051,0.0625527,0.995958,-0.0643326
1684000000.0,0.00412793,0.063223,0.99587,-0.0650221
1702000000.0,0.00421629,0.0638931,0.995782,-0.0657114
1720000000.0,0.00430556,0.064563,0.995693,-0.0664006
1738000000.0,0.00439576,0.0652327,0.995603,-0.0670895
1756000000.0,0.00448689,0.0659023,0.995511,-0.0677783
1774000000.0,0.00457893,0.0665717,0.995419,-0.0684669
1792000000.0,0.0046719,0.0672409,0.995326,-0.0691553
1810000000.0,0.00476579,0.0679099,0.995232,-0.0698436
1828000000.0,0.0048606,0.0685787,0.995137,-0.0705316
1846000000.0,0.00495633,0.0692473,0.995042,-0.0712194
1864000000.0,0.00505298,0.0699157,0.994945,-0.0719071
1882000000.0,0.00515055,0.0705839,0.994847,-0.0725945
1900000000.0,0.00524903,0.0712519,0.994749,-0.0732818
1918000000.0,0.00534844,0.0719198,0.994649,-0.0739689
1936000000.0,0.00544876,0.0725874,0.994549,-0.0746557
1954000000.0,0.00555,0.0732548,0.994448,-0.0753424
1972000000.0,0.00565216,0.073922,0.994346,-0.0760288
1990000000.0,0.00575523,0.074589,0.994243,-0.076715
2008000000.0,0.00585922,0.0752558,0.994138,-0.0774011
2026000000.0,0.00596413,0.0759224,0.994034,-0.0780869
2044000000.0,0.00606994,0.0765888,0.993928,-0.0787725
2062000000.0,0.00617668,0.0772549,0.993821,-0.0794578
2080000000.0,0.00628432,0.0779209,0.993713,-0.080143
2098000000.0,0.00639288,0.0785866,0.993605,-0.080828
2116000000.0,0.00650235,0.0792521,0.993495,-0.0815127
2134000000.0,0.00661273,0.0799173,0.993385,-0.0821972
2152000000.0,0.00672402,0.0805824,0.993273,-0.0828815
2170000000.0,0.00683622,0.0812472,0.993161,-0.0835655
2188000000.0,0.00694933,0.0819118,0.993048,-0.0842494
2206000000.0,0.00706335,0.0825762,0.992934,-0.084933
2224000000.0,0.00717828,0.0832403,0.992819,-0.0856163
2242000000.0,0.00729412,0.0839042,0.992703,-0.0862995
2260000000.0,0.00741086,0.0845679,0.992586,-0.0869824
2278000000.0,0.00752851,0.0852314,0.992469,-0.0876651
2296000000.0,0.00764707,0.0858946,0.99235,-0.0883475
2314000000.0,0.00776653,0.0865575,0.99223,-0.0890297
2332000000.0,0.00788689,0.0872202,0.99211,-0.0897116
2350000000.0,0.00800816,0.0878827,0.991989,-0.0903933
2368000000.0,0.00813034,0.0885449,0.991866,-0.0910748
2386000000.0,0.00825341,0.0892069,0.991743,-0.091756
2404000000.0,0.00837739,0.0898686,0.991619,-0.0924369
2422000000.0,0.00850227,0.0905301,0.991494,-0.0931176
2440000000.0,0.00862805,0.0911913,0.991369,-0.0937981
2458000000.0,0.00875473,0.0918523,0.991242,-0.0944783
2476000000.0,0.0088823,0.092513,0.991114,-0.0951583
2494000000.0,0.00901078,0.0931735,0.990986,-0.0958379
2512000000.0,0.00914016,0.0938337,0.990856,-0.0965174
2530000000.0,0.00927043,0.0944936,0.990726,-0.0971965
2548000000.0,0.00940159,0.0951533,0.990595,-0.0978754
2566000000.0,0.00953366,0.0958127,0.990463,-0.0985541
2584000000.0,0.00966662,0.0964718,0.99033,-0.0992325
2602000000.0,0.00980047,0.0971307,0.990196,-0.0999106
2620000000.0,0.00993522,0.0977893,0.990061,-0.100588
2638000000.0,0.0100709,0.0984476,0.989925,-0.101266
2656000000.0,0.0102074,0.0991057,0.989789,-0.101943
2674000000.0,0.0103448,0.0997635,0.989651,-0.10262
2692000000.0,0.0104831,0.100421,0.989513,-0.103297
2710000000.0,0.0106223,0.101078,0.989373,-0.103973
2728000000.0,0.0107624,0.101735,0.989233,-0.10465
2746000000.0,0.0109034,0.102392,0.989092,-0.105326
2764000000.0,0.0110453,0.103048,0.98895,-0.106001
2782000000.0,0.011188,0.103704,0.988808,-0.106676
2800000000.0,0.0113317,0.10436,0.988664,-0.107351
2818000000.0,0.0114762,0.105016,0.988519,-0.108026
2836000000.0,0.0116216,0.105671,0.988374,-0.108701
2854000000.0,0.0117679,0.106326,0.988227,-0.109375
2872000000.0,0.0119151,0.10698,0.98808,-0.110049
2890000000.0,0.0120631,0.107635,0.987932,-0.110722
2908000000.0,0.0122121,0.108289,0.987783,-0.111396
2926000000.0,0.0123619,0.108943,0.987633,-0.112069
2944000000.0,0.0125126,0.109596,0.987482,-0.112741
2962000000.0,0.0126642,0.110249,0.987331,-0.113414
2980000000.0,0.0128167,0.110902,0.987178,-0.114086
2998000000.0,0.01297,0.111554,0.987025,-0.114757
3016000000.0,0.0131242,0.112207,0.986871,-0.115429
3034000000.0,0.0132793,0.112859,0.986715,-0.1161
3052000000.0,0.0134353,0.11351,0.986559,-0.116771
3070000000.0,0.0135921,0.114162,0.986403,-0.117441
3088000000.0,0.0137498,0.114812,0.986245,-0.118112
3106000000.0,0.0139084,0.115463,0.986086,-0.118781
3124000000.0,0.0140679,0.116113,0.985927,-0.119451
3142000000.0,0.0142282,0.116763,0.985766,-0.12012
3160000000.0,0.0143894,0.117413,0.985605,-0.120789
3178000000.0,0.0145514,0.118063,0.985443,-0.121458
3196000000.0,0.0147144,0.118712,0.98528,-0.122126
3214000000.0,0.0148782,0.11936,0.985116,-0.122794
3232000000.0,0.0150428,0.120009,0.984951,-0.123462
3250000000.0,0.0152084,0.120657,0.984786,-0.124129
3268000000.0,0.0153748,0.121305,0.984619,-0.124796
3286000000.0,0.015542,0.121952,0.984452,-0.125462
3304000000.0,0.0157102,0.122599,0.984284,-0.126129
3322000000.0,0.0158792,0.123246,0.984115,-0.126795
3340000000.0,0.016049,0.123892,0.983945,-0.12746
3358000000.0,0.0162197,0.124538,0.983774,-0.128126
3376000000.0,0.0163913,0.125184,0.983602,-0.128791
3394000000.0,0.0165637,0.125829,0.98343,-0.129455
3412000000.0,0.016737,0.126474,0.983256,-0.130119
3430000000.0,0.0169111,0.127119,0.983082,-0.130783
3448000000.0,0.0170861,0.127763,0.982907,-0.131447
3466000000.0,0.017262,0.128407,0.982731,-0.13211
3484000000.0,0.0174387,0.129051,0.982554,-0.132773
3502000000.0,0.0176162,0.129694,0.982377,-0.133435
3520000000.0,0.0177947,0.130337,0.982198,-0.134098
3538000000.0,0.0179739,0.13098,0.982019,-0.134759
3556000000.0,0.018154,0.131622,0.981839,-0.135421
3574000000.0,0.018335,0.132264,0.981658,-0.136082
3592000000.0,0.0185168,0.132905,0.981476,-0.136743
3610000000.0,0.0186995,0.133546,0.981293,-0.137403
3628000000.0,0.018883,0.134187,0.98111,-0.138063
3646000000.0,0.0190673,0.134827,0.980925,-0.138723
3664000000.0,0.0192525,0.135467,0.98074,-0.139382
3682000000.0,0.0194385,0.136107,0.980554,-0.140041
3700000000.0,0.0196254,0.136746,0.980367,-0.140699
3718000000.0,0.0198131,0.137385,0.980179,-0.141357
3736000000.0,0.0200017,0.138024,0.97999,-0.142015
3754000000.0,0.0201911,0.138662,0.979801,-0.142673
3772000000.0,0.0203813,0.1393,0.979611,-0.14333
3790000000.0,0.0205724,0.139937,0.979419,-0.143986
3808000000.0,0.0207643,0.140574,0.979227,-0.144642
3826000000.0,0.0209571,0.141211,0.979035,-0.145298
3844000000.0,0.0211506,0.141847,0.978841,-0.145954
3862000000.0,0.0213451,0.142483,0.978646,-0.146609
3880000000.0,0.0215403,0.143118,0.978451,-0.147264
3898000000.0,0.0217364,0.143754,0.978255,-0.147918
3916000000.0,0.0219333,0.144388,0.978058,-0.148572
3934000000.0,0.022131,0.145023,0.97786,-0.149225
3952000000.0,0.0223296,0.145657,0.977661,-0.149879
3970000000.0,0.022529,0.14629,0.977462,-0.150531
3988000000.0,0.0227292,0.146923,0.977262,-0.151184
4006000000.0,0.0229303,0.147556,0.977061,-0.151836
4024000000.0,0.0231322,0.148188,0.976859,-0.152487
4042000000.0,0.0233348,0.14882,0.976656,-0.153139
4060000000.0,0.0235384,0.149452,0.976452,-0.153789
4078000000.0,0.0237427,0.150083,0.976248,-0.15444
4096000000.0,0.0239479,0.150714,0.976043,-0.15509
4114000000.0,0.0241538,0.151344,0.975836,-0.155739
4132000000.0,0.0243606,0.151974,0.97563,-0.156388
4150000000.0,0.0245683,0.152603,0.975422,-0.157037
4168000000.0,0.0247767,0.153233,0.975213,-0.157685
4186000000.0,0.0249859,0.153861,0.975004,-0.158333
4204000000.0,0.025196,0.15449,0.974794,-0.158981
4222000000.0,0.0254069,0.155117,0.974583,-0.159628
4240000000.0,0.0256185,0.155745,0.974371,-0.160275
4258000000.0,0.025831,0.156372,0.974159,-0.160921
4276000000.0,0.0260443,0.156999,0.973945,-0.161567
4294000000.0,0.0262584,0.157625,0.973731,-0.162212
4312000000.0,0.0264734,0.158251,0.973516,-0.162857
4330000000.0,0.0266891,0.158876,0.9733,-0.163502
4348000000.0,0.0269056,0.159501,0.973084,-0.164146
4366000000.0,0.0271229,0.160125,0.972866,-0.16479
4384000000.0,0.0273411,0.160749,0.972648,-0.165433
4402000000.0,0.02756,0.161373,0.972429,-0.166076
4420000000.0,0.0277798,0.161996,0.972209,-0.166718
4438000000.0,0.0280003,0.162619,0.971988,-0.16736
4456000000.0,0.0282216,0.163241,0.971767,-0.168002
4474000000.0,0.0284438,0.163863,0.971545,-0.168643
4492000000.0,0.0286667,0.164485,0.971322,-0.169284
4510000000.0,0.0288904,0.165106,0.971098,-0.169924
4528000000.0,0.0291149,0.165726,0.970873,-0.170564
4546000000.0,0.0293402,0.166346,0.970648,-0.171203
4564000000.0,0.0295663,0.166966,0.970422,-0.171842
4582000000.0,0.0297932,0.167585,0.970195,-0.172481
4600000000.0,0.0300209,0.168204,0.969967,-0.173119
4618000000.0,0.0302494,0.168823,0.969738,-0.173756
4636000000.0,0.0304786,0.169441,0.969509,-0.174393
4654000000.0,0.0307087,0.170058,0.969279,-0.17503
4672000000.0,0.0309395,0.170675,0.969048,-0.175666
4690000000.0,0.0311711,0.171292,0.968816,-0.176302
4708000000.0,0.0314035,0.171908,0.968584,-0.176938
4726000000.0,0.0316367,0.172523,0.968351,-0.177572
4744000000.0,0.0318706,0.173139,0.968117,-0.178207
4762000000.0,0.0321054,0.173753,0.967882,-0.178841
4780000000.0,0.0323409,0.174368,0.967646,-0.179474
4798000000.0,0.0325772,0.174981,0.96741,-0.180107
4816000000.0,0.0328142,0.175595,0.967173,-0.18074
4834000000.0,0.0330521,0.176208,0.966935,-0.181372
4852000000.0,0.0332907,0.17682,0.966696,-0.182004
4870000000.0,0.03353,0.177432,0.966456,-0.182635
4888000000.0,0.0337702,0.178044,0.966216,-0.183266
4906000000.0,0.0340111,0.178655,0.965975,-0.183896
4924000000.0,0.0342528,0.179265,0.965733,-0.184526
4942000000.0,0.0344952,0.179875,0.965491,-0.185155
4960000000.0,0.0347385,0.180485,0.965247,-0.185784
4978000000.0,0.0349825,0.181094,0.965003,-0.186412
4996000000.0,0.0352272,0.181703,0.964759,-0.18704
5014000000.0,0.0354727,0.182311,0.964513,-0.187668
5032000000.0,0.035719,0.182919,0.964267,-0.188295
5050000000.0,0.035966,0.183526,0.964019,-0.188921
5068000000.0,0.0362138,0.184133,0.963772,-0.189547
5086000000.0,0.0364623,0.184739,0.963523,-0.190173
5104000000.0,0.0367116,0.185345,0.963273,-0.190798
5122000000.0,0.0369617,0.18595,0.963023,-0.191422
5140000000.0,0.0372125,0.186555,0.962772,-0.192046
5158000000.0,0.0374641,0.187159,0.962521,-0.19267
5176000000.0,0.0377164,0.187763,0.962268,-0.193293
5194000000.0,0.0379694,0.188366,0.962015,-0.193915
5212000000.0,0.0382232,0.188969,0.961761,-0.194538
5230000000.0,0.0384778,0.189572,0.961507,-0.195159
5248000000.0,0.0387331,0.190174,0.961251,-0.19578
5266000000.0,0.0389891,0.190775,0.960995,-0.196401
5284000000.0,0.0392459,0.191376,0.960738,-0.197021
5302000000.0,0.0395035,0.191976,0.96048,-0.197641
5320000000.0,0.0397617,0.192576,0.960222,-0.19826
5338000000.0,0.0400207,0.193176,0.959963,-0.198878
5356000000.0,0.0402805,0.193774,0.959703,-0.199496
5374000000.0,0.040541,0.194373,0.959443,-0.200114
5392000000.0,0.0408022,0.194971,0.959181,-0.200731
5410000000.0,0.0410642,0.195568,0.958919,-0.201348
5428000000.0,0.0413269,0.196165,0.958656,-0.201964
5446000000.0,0.0415903,0.196761,0.958393,-0.20258
5464000000.0,0.0418544,0.197357,0.958129,-0.203195
5482000000.0,0.0421193,0.197953,0.957864,-0.203809
5500000000.0,0.0423849,0.198547,0.957598,-0.204423
5518000000.0,0.0426513,0.199142,0.957331,-0.205037
5536000000.0,0.0429183,0.199736,0.957064,-0.20565
5554000000.0,0.0431861,0.200329,0.956796,-0.206262
5572000000.0,0.0434546,0.200922,0.956528,-0.206874
5590000000.0,0.0437238,0.201514,0.956258,-0.207486
5608000000.0,0.0439938,0.202106,0.955988,-0.208097
5626000000.0,0.0442645,0.202697,0.955717,-0.208707
5644000000.0,0.0445358,0.203288,0.955446,-0.209317
5662000000.0,0.044808,0.203878,0.955174,-0.209927
5680000000.0,0.0450808,0.204467,0.954901,-0.210536
5698000000.0,0.0453543,0.205057,0.954627,-0.211144
5716000000.0,0.0456285,0.205645,0.954353,-0.211752
5734000000.0,0.0459035,0.206233,0.954078,-0.212359
5752000000.0,0.0461792,0.206821,0.953802,-0.212966
5770000000.0,0.0464555,0.207408,0.953525,-0.213572
5788000000.0,0.0467326,0.207994,0.953248,-0.214178
5806000000.0,0.0470104,0.20858,0.95297,-0.214783
5824000000.0,0.0472889,0.209166,0.952692,-0.215388
5842000000.0,0.0475681,0.209751,0.952412,-0.215992
5860000000.0,0.047848,0.210335,0.952132,-0.216596
5878000000.0,0.0481286,0.210919,0.951852,-0.217199
5896000000.0,0.0484099,0.211502,0.95157,-0.217801
5914000000.0,0.0486919,0.212085,0.951288,-0.218403
5932000000.0,0.0489746,0.212667,0.951005,-0.219005
5950000000.0,0.0492579,0.213249,0.950722,-0.219605
5968000000.0,0.049542,0.21383,0.950438,-0.220206
5986000000.0,0.0498268,0.214411,0.950153,-0.220806
6004000000.0,0.0501122,0.214991,0.949867,-0.221405
6022000000.0,0.0503984,0.21557,0.949581,-0.222004
6040000000.0,0.0506852,0.216149,0.949294,-0.222602
6058000000.0,0.0509728,0.216727,0.949006,-0.223199
6076000000.0,0.051261,0.217305,0.948718,-0.223797
6094000000.0,0.0515499,0.217883,0.948429,-0.224393
6112000000.0,0.0518394,0.218459,0.948139,-0.224989
6130000000.0,0.0521297,0.219036,0.947849,-0.225585
6148000000.0,0.0524206,0.219611,0.947558,-0.226179
6166000000.0,0.0527122,0.220186,0.947266,-0.226774
6184000000.0,0.0530045,0.220761,0.946974,-0.227368
6202000000.0,0.0532975,0.221335,0.946681,-0.227961
6220000000.0,0.0535911,0.221908,0.946387,-0.228554
6238000000.0,0.0538855,0.222481,0.946092,-0.229146
6256000000.0,0.0541805,0.223054,0.945797,-0.229737
6274000000.0,0.0544761,0.223625,0.945501,-0.230328
6292000000.0,0.0547724,0.224197,0.945205,-0.230919
6310000000.0,0.0550694,0.224767,0.944908,-0.231509
6328000000.0,0.0553671,0.225337,0.94461,-0.232098
6346000000.0,0.0556654,0.225907,0.944312,-0.232687
6364000000.0,0.0559644,0.226476,0.944012,-0.233275
6382000000.0,0.0562641,0.227044,0.943713,-0.233862
6400000000.0,0.0565644,0.227612,0.943412,-0.234449
6418000000.0,0.0568653,0.228179,0.943111,-0.235036
6436000000.0,0.057167,0.228746,0.942809,-0.235622
6454000000.0,0.0574693,0.229312,0.942507,-0.236207
6472000000.0,0.0577722,0.229878,0.942204,-0.236792
6490000000.0,0.0580758,0.230443,0.9419,-0.237376
6508000000.0,0.05838,0.231007,0.941596,-0.23796
6526000000.0,0.0586849,0.231571,0.941291,-0.238543
6544000000.0,0.0589905,0.232134,0.940985,-0.239125
6562000000.0,0.0592967,0.232697,0.940679,-0.239707
6580000000.0,0.0596035,0.233259,0.940372,-0.240289
6598000000.0,0.059911,0.23382,0.940064,-0.240869
6616000000.0,0.0602191,0.234381,0.939756,-0.24145
6634000000.0,0.0605279,0.234942,0.939447,-0.242029
6652000000.0,0.0608373,0.235502,0.939137,-0.242608
6670000000.0,0.0611474,0.236061,0.938827,-0.243187
6688000000.0,0.0614581,0.236619,0.938516,-0.243764
6706000000.0,0.0617694,0.237177,0.938205,-0.244342
6724000000.0,0.0620813,0.237735,0.937893,-0.244918
6742000000.0,0.0623939,0.238292,0.93758,-0.245495
6760000000.0,0.0627072,0.238848,0.937267,-0.24607
6778000000.0,0.063021,0.239404,0.936953,-0.246645
6796000000.0,0.0633355,0.239959,0.936638,-0.247219
6814000000.0,0.0636506,0.240513,0.936323,-0.247793
6832000000.0,0.0639664,0.241067,0.936007,-0.248366
6850000000.0,0.0642827,0.241621,0.93569,-0.248939
6868000000.0,0.0645997,0.242173,0.935373,-0.249511
6886000000.0,0.0649174,0.242726,0.935056,-0.250082
6904000000.0,0.0652356,0.243277,0.934737,-0.250653
6922000000.0,0.0655544,0.243828,0.934418,-0.251223
6940000000.0,0.0658739,0.244378,0.934099,-0.251793
6958000000.0,0.066194,0.244928,0.933778,-0.252362
6976000000.0,0.0665147,0.245477,0.933458,-0.25293
6994000000.0,0.066836,0.246026,0.933136,-0.253498
7012000000.0,0.0671579,0.246574,0.932814,-0.254065
7030000000.0,0.0674805,0.247121,0.932491,-0.254632
7048000000.0,0.0678036,0.247668,0.932168,-0.255198
7066000000.0,0.0681274,0.248214,0.931844,-0.255763
7084000000.0,0.0684518,0.24876,0.93152,-0.256328
7102000000.0,0.0687767,0.249305,0.931194,-0.256892
7120000000.0,0.0691023,0.249849,0.930869,-0.257456
7138000000.0,0.0694285,0.250393,0.930542,-0.258019
7156000000.0,0.0697552,0.250936,0.930216,-0.258581
7174000000.0,0.0700826,0.251479,0.929888,-0.259143
7192000000.0,0.0704106,0.252021,0.92956,-0.259704
7210000000.0,0.0707392,0.252562,0.929231,-0.260265
7228000000.0,0.0710683,0.253103,0.928902,-0.260825
7246000000.0,0.0713981,0.253643,0.928572,-0.261384
7264000000.0,0.0717284,0.254182,0.928241,-0.261943
7282000000.0,0.0720594,0.254721,0.92791,-0.262501
7300000000.0,0.0723909,0.25526,0.927579,-0.263059
7318000000.0,0.072723,0.255797,0.927246,-0.263615
7336000000.0,0.0730557,0.256334,0.926914,-0.264172
7354000000.0,0.073389,0.256871,0.92658,-0.264727
7372000000.0,0.0737228,0.257407,0.926246,-0.265283
7390000000.0,0.0740573,0.257942,0.925912,-0.265837
7408000000.0,0.0743923,0.258477,0.925576,-0.266391
7426000000.0,0.0747279,0.259011,0.925241,-0.266944
7444000000.0,0.0750641,0.259544,0.924904,-0.267497
7462000000.0,0.0754009,0.260077,0.924567,-0.268049
7480000000.0,0.0757382,0.260609,0.92423,-0.2686
7498000000.0,0.0760761,0.26114,0.923892,-0.269151
7516000000.0,0.0764146,0.261671,0.923553,-0.269701
7534000000.0,0.0767536,0.262201,0.923214,-0.27025
7552000000.0,0.0770933,0.262731,0.922874,-0.270799
7570000000.0,0.0774334,0.26326,0.922534,-0.271347
7588000000.0,0.0777742,0.263789,0.922193,-0.271895
7606000000.0,0.0781155,0.264316,0.921851,-0.272442
7624000000.0,0.0784574,0.264843,0.921509,-0.272988
7642000000.0,0.0787998,0.26537,0.921167,-0.273534
7660000000.0,0.0791428,0.265896,0.920824,-0.274079
7678000000.0,0.0794863,0.266421,0.92048,-0.274624
7696000000.0,0.0798305,0.266946,0.920136,-0.275168
7714000000.0,0.0801751,0.26747,0.919791,-0.275711
7732000000.0,0.0805203,0.267993,0.919446,-0.276254
7750000000.0,0.0808661,0.268516,0.9191,-0.276796
7768000000.0,0.0812124,0.269038,0.918753,-0.277337
7786000000.0,0.0815593,0.26956,0.918406,-0.277878
7804000000.0,0.0819067,0.27008,0.918059,-0.278418
7822000000.0,0.0822547,0.270601,0.91771,-0.278957
7840000000.0,0.0826032,0.27112,0.917362,-0.279496
7858000000.0,0.0829522,0.271639,0.917013,-0.280034
7876000000.0,0.0833018,0.272157,0.916663,-0.280572
7894000000.0,0.0836519,0.272675,0.916313,-0.281109
7912000000.0,0.0840026,0.273192,0.915962,-0.281645
7930000000.0,0.0843538,0.273709,0.91561,-0.28218
7948000000.0,0.0847055,0.274224,0.915258,-0.282715
7966000000.0,0.0850578,0.274739,0.914906,-0.28325
